,t,x,y,z,r,phi,theta
0,753.0,20.953440863968442,41.80631384897086,-23.43794078557159,247.0,0.0,0.0
1,784.0,-46.451013137050296,1.6453181730363053,-23.295977043769,248.0,0.0,2.0
2,816.0,22.98496640882982,-55.31860153125894,-30.02391407010726,209.0,0.0,4.0
3,846.0,53.58924429016858,57.77905532463795,-39.4972799789413,170.0,0.0,6.0
4,877.0,-108.35785757125025,35.739282779596444,-57.18704349582172,118.0,0.0,8.0
5,908.0,11.248545097102408,-101.27801869441035,-51.07294933339597,134.0,0.0,10.0
6,939.0,111.73078161619917,66.94684954344571,-65.28278946096735,99.0,0.0,12.0
7,969.0,-85.20108729500272,58.5116498300805,-51.80322582413034,132.0,0.0,14.0
8,1000.0,-21.012961351934315,-120.55183289304568,-61.331922590717745,108.0,0.0,16.0
9,1031.0,114.30109267508666,29.994592985401894,-59.2276980615543,113.0,0.0,18.0
10,1062.0,-87.75483214020416,107.23288749816507,-69.44833807247603,90.0,0.0,20.0
11,1093.0,-44.21796837888409,-90.20826359141243,-50.35219847682958,136.0,0.0,22.0
12,1124.0,146.26804178685558,-3.88495492394625,-73.33580376320623,82.0,0.0,24.0
13,1155.0,-39.647871753775185,93.08766443475962,-50.71138704346071,135.0,0.0,26.0
14,1185.0,-84.15483111640779,-92.36075007193071,-62.625370523031805,105.0,0.0,28.0
15,1216.0,127.52098116582346,-40.81186446637405,-67.10730745376738,95.0,0.0,30.0
16,1247.0,-15.63099293277168,130.21956458521086,-65.73492415827158,98.0,0.0,32.0
17,1278.0,-114.23979673163014,-69.83178188641479,-67.10730745376738,95.0,0.0,34.0
18,1309.0,103.62240052058125,-69.8207839001612,-62.625370523031805,105.0,0.0,36.0
19,1340.0,19.53202302436852,118.23265555348382,-60.06170568094289,111.0,0.0,38.0
20,1371.0,-110.87832234788539,-30.14788370366061,-57.59013492332098,117.0,0.0,40.0
21,1401.0,80.54345117000919,-96.66239000373437,-63.0617181476997,104.0,0.0,42.0
22,1432.0,45.953230541054495,95.88663264570467,-53.29260163571477,128.0,0.0,44.0
23,1464.0,-110.91505178503967,1.9637176373339873,-55.599644656924895,122.0,0.0,46.0
24,1495.0,20.820413651850405,-47.70764583943153,-26.08908097972914,230.0,0.0,48.0
25,1525.0,66.52760166581335,74.32562989960412,-49.995375948264694,137.0,0.0,50.0
26,1556.0,-92.5943567502123,28.732923453190043,-48.59159250991031,141.0,0.0,52.0
27,1587.0,13.132518081680862,-101.78319931063551,-51.43689303187322,133.0,0.0,54.0
28,1617.0,99.57695470204953,62.086127967168466,-58.81451229228481,114.0,0.0,56.0
29,1649.0,-97.89339109437228,64.70812293471289,-58.81451229228481,114.0,0.0,58.0
30,1680.0,-17.600030699199298,-112.73402569951344,-57.18704349582172,118.0,0.0,60.0
31,1711.0,109.83295658287221,30.910245539241842,-57.18704349582172,118.0,0.0,62.0
32,1741.0,-68.78655681598111,81.08239832844994,-53.29260163571477,128.0,0.0,64.0
33,1772.0,-21.795552041560192,-46.531252078548334,-25.75325784535627,232.0,0.0,66.0
34,1804.0,55.230036015720955,-0.4888772819810068,-27.682532201857374,221.0,0.0,68.0
35,1835.0,-14.21208299489148,31.79471701225183,-17.45515478680027,305.0,0.0,70.0
36,1865.0,-45.14680967928026,-51.34608571654525,-34.2679601916497,190.0,0.0,72.0
37,1896.0,44.243772457157775,-13.301104509390765,-23.155518593391356,249.0,0.0,74.0
38,1927.0,-7.071542434955675,51.23054311027504,-25.92035144230834,231.0,0.0,76.0
39,1957.0,-53.050207431398036,-33.732501112810816,-31.508901923561474,202.0,0.0,78.0
40,1989.0,47.284123815330155,-30.65717364258537,-28.244236211923624,218.0,0.0,80.0
41,2020.0,7.286889542821867,49.548746297251434,-25.10108915747787,236.0,0.0,82.0
42,2051.0,-76.75476994565533,-22.336113272497762,-40.06550178580358,168.0,0.0,84.0
43,2081.0,47.29186461917922,-54.755527338080704,-36.26259542937665,182.0,0.0,86.0
44,2112.0,18.661355881992495,40.77580650466342,-22.475536729552147,254.0,0.0,88.0
45,2143.0,-85.25158767273756,-0.0,-42.72833302915323,159.0,0.0,90.0
46,2174.0,19.110563654371393,-41.75734339419822,-23.016557749200818,250.0,0.0,92.0
47,2205.0,47.29186461917922,54.755527338080704,-36.26259542937665,182.0,0.0,94.0
48,2236.0,-49.336344065753416,14.35718158342247,-25.75325784535627,232.0,0.0,96.0
49,2267.0,6.887819226692965,-46.83518329723132,-23.726414884403145,245.0,0.0,98.0
50,2297.0,45.73121967321649,29.650331428039916,-27.31663963478006,223.0,0.0,100.0
51,2329.0,-45.99187247049682,29.244388748102626,-27.31663963478006,223.0,0.0,102.0
52,2360.0,-7.258371211020537,-52.584044097431445,-26.60516208718259,227.0,0.0,104.0
53,2391.0,50.503223277727365,15.182897243416964,-26.431478616928395,228.0,0.0,106.0
54,2421.0,-43.28415543664359,49.227663505050586,-32.854142429311224,196.0,0.0,108.0
55,2452.0,-24.613903353486407,-55.0652632673422,-30.230578663020832,208.0,0.0,110.0
56,2484.0,59.49265918263308,0.5266085560898287,-29.819054492895532,210.0,0.0,112.0
57,2514.0,-12.46042755294427,26.601725634981214,-14.7230317003425,400.0,0.0,114.0
58,2545.0,-23.57944436489005,-27.794353851323386,-18.268248819188432,294.0,0.0,116.0
59,2576.0,28.84562428069505,-8.118012634725376,-15.019134708984819,468.0,0.0,118.0
60,2608.0,-4.543727418812333,29.104078984775697,-14.763743426004366,388.0,0.0,120.0
61,2638.0,-24.573406339516673,-16.243170050255927,-14.763743426004366,388.0,0.0,122.0
62,2669.0,24.977112128574657,-15.573203503813154,-14.752576765451076,419.0,0.0,124.0
63,2700.0,3.7630244993491058,29.165211899638347,-14.738855674551964,415.0,0.0,126.0
64,2731.0,-28.501513974736138,-8.844295139338954,-14.957001717847318,507.0,0.0,128.0
65,3844.0,-48.67437868957011,-97.11514042541037,75.31128714931424,113.0,3.0,0.0
66,3874.0,53.91612101532007,-1.9097360366371534,37.40243956924901,212.0,3.0,2.0
67,3905.0,-43.162124062070234,103.87956631144733,77.9869247805077,108.0,3.0,4.0
68,3936.0,-69.34611333716224,-74.76785635119668,70.69801699545607,122.0,3.0,6.0
69,3968.0,116.8886233884739,-38.55295461384988,85.33064540538993,95.0,3.0,8.0
70,3998.0,-12.331183872819132,111.02572466169823,77.44527200366524,109.0,3.0,10.0
71,4029.0,-95.15767906867102,-57.01657798651067,76.90689162432881,110.0,3.0,12.0
72,4060.0,100.07336914576968,-68.7251550264793,84.1638784115554,97.0,3.0,14.0
73,4090.0,18.916379108727124,108.52369330831391,76.37177387029423,111.0,3.0,16.0
74,4121.0,-105.07273744004638,-27.572912205966364,75.31128714931424,113.0,3.0,18.0
75,4152.0,75.30902232615306,-92.02460675663922,82.4391259699607,100.0,3.0,20.0
76,4184.0,50.55572241315006,103.13779896946976,79.63161521811264,105.0,3.0,22.0
77,4214.0,-91.01496482291782,2.4174045910647086,63.12115924156407,138.0,3.0,24.0
78,4245.0,33.94114504947603,-79.68906731030995,60.04925875021552,145.0,3.0,26.0
79,4276.0,42.03376954812496,46.13247311310413,43.26783312740197,191.0,3.0,28.0
80,4306.0,-128.975998673997,41.277528836243995,93.88422364644387,81.0,3.0,30.0
81,4337.0,17.61168140858998,-146.72039674663066,102.4485867126249,68.0,3.0,32.0
82,4369.0,105.016390362147,64.19375625724992,85.33064540538993,95.0,3.0,34.0
83,4400.0,-98.61458868456072,66.44651978102402,82.4391259699607,100.0,3.0,36.0
84,4430.0,-19.381500339929346,-117.32150074478432,82.4391259699607,100.0,3.0,38.0
85,4461.0,111.6102328570355,30.346890619026023,80.18645530702058,104.0,3.0,40.0
86,4492.0,-74.04059488178603,88.8581350141677,80.18645530702058,104.0,3.0,42.0
87,4523.0,-63.44025497520345,-132.3752944490501,101.76802482815019,69.0,3.0,44.0
88,4554.0,118.89300322280496,-2.1049648683995805,82.4391259699607,100.0,3.0,46.0
89,4585.0,-44.371108632703944,101.67142553211708,76.90689162432881,110.0,3.0,48.0
90,4616.0,-53.4006348567815,-59.659986582811335,55.50983583613619,156.0,3.0,50.0
91,4646.0,108.94190647680158,-33.80572606694361,79.08008661552728,106.0,3.0,52.0
92,4677.0,-13.70738174722553,106.23866342518302,74.2637336630922,115.0,3.0,54.0
93,4708.0,-81.77670544929565,-50.987691021986144,66.81143831949638,130.0,3.0,56.0
94,4740.0,94.49725726852361,-62.46325795813956,78.53185972706035,107.0,3.0,58.0
95,4770.0,16.756383806091115,107.3301879361339,75.31128714931424,113.0,3.0,60.0
96,4801.0,-101.67701568423053,-28.614922317287594,73.22903523399499,117.0,3.0,62.0
97,4832.0,41.529629860088704,-48.95319880245081,44.50583599517595,187.0,3.0,64.0
98,4862.0,47.054959542228545,100.45747773813197,76.90689162432881,110.0,3.0,66.0
99,4894.0,-127.37113971492664,1.127445518393866,88.30739504991728,90.0,3.0,68.0
100,4925.0,48.52570544875701,-108.55981302091296,82.4391259699607,100.0,3.0,70.0
101,4956.0,45.18352062551727,51.387837579093485,47.43913992420225,178.0,3.0,72.0
102,4986.0,-86.57361103856748,26.02681878662989,62.67342748110337,139.0,3.0,74.0
103,5017.0,14.85380727725733,-107.60999047501562,75.31128714931424,113.0,3.0,76.0
104,5048.0,89.76138915861037,57.075670506958375,73.74478245250505,116.0,3.0,78.0
105,5080.0,-84.96401810920909,55.087341085535634,70.20128851312161,123.0,3.0,80.0
106,5110.0,-14.837519439439959,-100.89085089941493,70.69801699545607,122.0,3.0,82.0
107,5141.0,62.07639282918804,18.064614652125563,44.821587695567736,186.0,3.0,84.0
108,5172.0,-38.303224618593894,44.34828864602429,40.625931875871146,200.0,3.0,86.0
109,5202.0,-24.386018995370012,-53.28442361113609,40.625931875871146,200.0,3.0,88.0
110,5233.0,86.00006892811427,0.0,59.62217639314166,146.0,3.0,90.0
111,5265.0,-35.78865662727095,78.19964138316557,59.62217639314166,146.0,3.0,92.0
112,5296.0,-89.11739301568186,-103.18201426106805,94.52147106833412,80.0,3.0,94.0
113,5326.0,49.07733118914797,-14.281807232681912,35.43575590501317,220.0,3.0,96.0
114,5357.0,-4.940647624418163,33.59497824796353,23.541265852781862,291.0,3.0,98.0
115,5388.0,-34.58878028260053,-22.426010204827428,28.578885485556224,254.0,3.0,100.0
116,5419.0,34.5822628360655,-21.989475179896644,28.41156396381781,255.0,3.0,102.0
117,5450.0,5.322812995297851,38.56168624197022,26.987552110275924,264.0,3.0,104.0
118,5481.0,-36.46858172181655,-10.96363148646165,26.400781767815477,268.0,3.0,106.0
119,5512.0,58.01596371536141,-65.98235106796622,60.91219503103877,143.0,3.0,108.0
120,5542.0,51.62542787875668,115.49439097924564,87.70516807105913,91.0,3.0,110.0
121,5574.0,-125.63885602905808,-1.112111939039936,87.10638938938148,92.0,3.0,112.0
122,5605.0,11.577252939470462,-24.716239069164345,18.921927588190815,514.0,3.0,114.0
123,5636.0,12.38139834451083,14.59461730463589,13.268706847814054,606.0,3.0,116.0
124,5666.0,-26.20114866822032,7.37377890882677,18.87038900664571,517.0,3.0,118.0
125,5697.0,4.181041241878108,-26.780953901066535,18.79162002936133,521.0,3.0,120.0
126,5729.0,22.636952112088554,14.963162106869166,18.812418469068813,520.0,3.0,122.0
127,5760.0,-23.198140167571907,14.46401633142669,18.95284362970276,512.0,3.0,124.0
128,5790.0,-3.4723409236861293,-26.912277303697852,18.812418469068813,520.0,3.0,126.0
129,5821.0,25.025321571411304,7.765599053110523,18.165687213028942,542.0,3.0,128.0
130,6934.0,28.75303356540043,57.36806442192436,-59.51706342407257,171.0,6.0,0.0
131,6965.0,-98.21837558513477,3.4789441039646927,-91.15326048637158,111.0,6.0,2.0
132,6995.0,20.918598137085237,-50.345411620589225,-50.56496762754121,194.0,6.0,4.0
133,7026.0,70.17090341574341,75.65713165658286,-95.70626001817496,104.0,6.0,6.0
134,7057.0,-97.3181619943831,32.09809965853963,-95.0440325931789,105.0,6.0,8.0
135,7088.0,11.390742637605042,-102.55831628321008,-95.70626001817496,104.0,6.0,10.0
136,7119.0,88.51579158133534,53.036891852866994,-95.70626001817496,104.0,6.0,12.0
137,7150.0,-77.13772066605627,52.97415142925735,-86.79050008854601,118.0,6.0,14.0
138,7181.0,-15.512842187305472,-88.99752527684963,-83.78849952056045,123.0,6.0,16.0
139,7212.0,93.74135065074253,24.59935940125718,-89.88752031273098,113.0,6.0,18.0
140,7242.0,-60.9501118739259,74.47859371590002,-89.26044471392004,114.0,6.0,20.0
141,7274.0,-51.05270533158491,-104.15168467589696,-107.58014740771333,87.0,6.0,22.0
142,7305.0,102.43880979190725,-2.7208278284342704,-95.0440325931789,105.0,6.0,24.0
143,7335.0,-32.98146501907046,77.43587265739326,-78.06372556335242,133.0,6.0,26.0
144,7366.0,-67.12267593377342,-73.66779320729597,-92.43453038523485,109.0,6.0,28.0
145,7397.0,92.30335989843377,-29.54080324293668,-89.88752031273098,113.0,6.0,30.0
146,7428.0,-11.713020046441804,97.5794933172578,-91.15326048637158,111.0,6.0,32.0
147,7459.0,-85.62784438628849,-52.34204824991235,-93.08101814057417,108.0,6.0,34.0
148,7490.0,84.98347264346594,-57.26187242058898,-95.0440325931789,105.0,6.0,36.0
149,7521.0,17.897822825948005,108.34039662443034,-101.84608990905122,95.0,6.0,38.0
150,7552.0,-97.51917991293566,-26.51552469983426,-93.73142331795819,107.0,6.0,40.0
151,7582.0,56.21923194660194,-67.47023184619044,-81.45433347794328,127.0,6.0,42.0
152,7613.0,44.90640728234695,93.7023170693929,-96.37245151953437,103.0,6.0,44.0
153,7645.0,-92.2547646799537,1.6333428656845022,-85.57837914766553,120.0,6.0,46.0
154,7675.0,34.14668212691106,-78.24329740718372,-79.17930045982122,131.0,6.0,48.0
155,7706.0,81.12376699336077,90.6326837377738,-112.81576736033068,80.0,6.0,50.0
156,7737.0,-71.72524450998726,22.257036308663363,-69.65340835368443,149.0,6.0,52.0
157,7768.0,10.770325581414037,-83.47509506365675,-78.06372556335242,133.0,6.0,54.0
158,7798.0,81.66569548020162,50.91847642140486,-89.26044471392004,114.0,6.0,56.0
159,7830.0,-73.26378397484177,48.42780382933172,-81.45433347794328,127.0,6.0,58.0
160,7861.0,-13.451277349387016,-86.1598864407701,-80.88006066131551,128.0,6.0,60.0
161,7891.0,86.96123952007491,24.47346725055304,-83.78849952056045,123.0,6.0,62.0
162,7922.0,-54.4492875023746,64.18229116742364,-78.06372556335242,133.0,6.0,64.0
163,7953.0,-35.449283351090976,-75.680557962845,-77.51138269573725,134.0,6.0,66.0
164,7984.0,93.57244592388768,-0.828271106297373,-86.79050008854601,118.0,6.0,68.0
165,8015.0,-29.996555835253016,67.10712317588484,-68.17593196438955,152.0,6.0,70.0
166,8046.0,-61.35704081068174,-69.7822038624514,-86.18254505677162,119.0,6.0,72.0
167,8077.0,54.46189457149945,-16.373001469899332,-52.74591475714475,188.0,6.0,74.0
168,8108.0,-10.718231284202778,77.64936927436976,-72.70153486143656,143.0,6.0,76.0
169,8138.0,-84.09967848303205,-53.47561556068264,-92.43453038523485,109.0,6.0,78.0
170,8170.0,82.46392407140388,-53.46637804645873,-91.15326048637158,111.0,6.0,80.0
171,8201.0,20.494724589007586,139.35821355946163,-130.64301306114228,58.0,6.0,82.0
172,8231.0,-60.3099309093486,-17.550563296606896,-58.256952789910585,174.0,6.0,84.0
173,8262.0,27.723576955418,-32.09894742183926,-39.33828585338867,231.0,6.0,86.0
174,8293.0,16.561857023577645,36.18831780615492,-36.9121744171815,241.0,6.0,88.0
175,8324.0,-37.21491023646072,-0.0,-34.51629495659092,252.0,6.0,90.0
176,8355.0,19.89405172852448,-43.469296068612714,-44.338790403897484,213.0,6.0,92.0
177,8386.0,89.6744661130316,103.82700534900398,-127.24331306083677,62.0,6.0,94.0
178,8417.0,-58.61613823716672,17.05765914207985,-56.620817608666314,178.0,6.0,96.0
179,8448.0,6.131441947782616,-41.6920360493562,-39.08469455097899,232.0,6.0,98.0
180,8478.0,35.35888092876097,22.925313296998784,-39.08469455097899,232.0,6.0,100.0
181,8509.0,-25.22502240975794,16.039580949955457,-27.724994226624023,294.0,6.0,102.0
182,8541.0,-3.4375859222614484,-24.903957715809653,-23.31707220526387,350.0,6.0,104.0
183,8571.0,32.89296761428949,9.888686600703494,-31.85657934861426,266.0,6.0,106.0
184,8602.0,-72.01142176334113,81.8995774163804,-101.14776590791676,96.0,6.0,108.0
185,8633.0,-47.01219675937234,-105.17385049227678,-106.84894443770493,88.0,6.0,110.0
186,8665.0,24.57690602570641,0.2175463187083554,-22.795620479294584,498.0,6.0,112.0
187,8695.0,-10.233648788087995,21.847783003332747,-22.376313217142776,523.0,6.0,114.0
188,8726.0,-15.186476119997579,-17.90111270231594,-21.772790030616914,540.0,6.0,116.0
189,8757.0,11.441789955845115,-3.220058422780873,-11.024341620709869,634.0,6.0,118.0
190,8787.0,-3.7021632143493366,23.71358153194806,-22.260427584471035,527.0,6.0,120.0
191,8819.0,-19.872062696673726,-13.135553499245455,-22.09366666544682,532.0,6.0,122.0
192,8850.0,19.561017554269952,-12.196274154761193,-21.38015375592099,548.0,6.0,124.0
193,8881.0,2.77663294093866,21.520212824550946,-20.125140159703694,567.0,6.0,126.0
194,8911.0,-22.635202578483227,-7.023922038677775,-21.98136819384323,535.0,6.0,128.0
195,10024.0,-39.7218191595555,-79.25298996080639,109.31050328434829,104.0,9.0,0.0
196,10055.0,42.18023570441209,-1.494045095263363,52.0431293971835,209.0,9.0,2.0
197,10086.0,-34.970525612259365,84.16460295282846,112.38135312996195,100.0,9.0,4.0
198,10117.0,-58.22340094605666,-62.775527981609514,105.57371101267157,109.0,9.0,6.0
199,10148.0,81.31111017801848,-26.81855127916586,105.57371101267157,109.0,9.0,8.0
200,10179.0,-9.320313272837666,83.91688469359215,104.11031397405327,111.0,9.0,10.0
201,10210.0,-73.44483500181644,-44.00667611455185,105.57371101267157,109.0,9.0,12.0
202,10241.0,68.15539912829509,-46.805562868187444,101.94844238203892,114.0,9.0,14.0
203,10271.0,16.65014746425802,95.52227128476733,119.56004322398881,91.0,9.0,16.0
204,10303.0,-82.81569560730921,-21.732277657268614,105.57371101267157,109.0,9.0,18.0
205,10334.0,53.847637928815764,-65.79965523536347,104.83978868129584,110.0,9.0,20.0
206,10364.0,38.74878491377929,79.05068304807904,108.55414300967794,105.0,9.0,22.0
207,10395.0,-71.77145681947448,1.9062870546658957,88.52930049850184,134.0,9.0,24.0
208,10426.0,42.924252459648024,-100.78014865189219,135.06941286126735,73.0,9.0,26.0
209,10458.0,65.30495668849066,71.67282856073551,119.56004322398881,91.0,9.0,28.0
210,10488.0,-94.90669571117861,30.373975850133302,122.87221394199629,87.0,9.0,30.0
211,10519.0,10.492238200920072,-87.40933451409714,108.55414300967794,105.0,9.0,32.0
212,10550.0,74.59452627957548,45.59767119782952,107.8022969666837,106.0,9.0,34.0
213,10580.0,-68.0882758040474,45.87788708971999,101.23662495624329,115.0,9.0,36.0
214,10612.0,-14.449166579750958,-87.46474101157973,109.31050328434829,104.0,9.0,38.0
215,10643.0,84.95252492042191,23.09864351660669,108.55414300967794,105.0,9.0,40.0
216,10674.0,-54.427941622387955,65.32045552777063,104.83978868129584,110.0,9.0,42.0
217,10704.0,-45.77590776433636,-95.51662854042857,130.60400700618325,78.0,9.0,44.0
218,10735.0,65.43615261039331,-1.1585274039212026,80.69896193965117,147.0,9.0,46.0
219,10767.0,-36.707660691296084,84.11149293850535,113.16048438564137,99.0,9.0,48.0
220,10798.0,-57.904208191667074,-64.69144595505622,107.05495183385693,107.0,9.0,50.0
221,10828.0,73.60313771793486,-22.83976471340602,95.02581528961629,124.0,9.0,52.0
222,10859.0,-10.215167242053255,79.17235650638476,98.43303220387791,119.0,9.0,54.0
223,10891.0,-67.74021051440072,-42.23595098990761,98.43303220387791,119.0,9.0,56.0
224,10921.0,69.45782175265377,-45.91203980680648,102.66465414593337,113.0,9.0,58.0
225,10952.0,12.753450871606828,81.69007673279887,101.94844238203892,114.0,9.0,60.0
226,10983.0,-90.18705617280193,-25.381307555526828,115.52549640307913,96.0,9.0,62.0
227,11014.0,49.8550999396965,-58.76687624922654,95.02581528961629,124.0,9.0,64.0
228,11045.0,31.77825547509774,67.84329267314273,92.37682190149394,128.0,9.0,66.0
229,11076.0,-63.14711047703072,0.5589565019689251,77.8668546184093,152.0,9.0,68.0
230,11107.0,35.926240408641156,-80.37278191504075,108.55414300967794,105.0,9.0,70.0
231,11138.0,52.712184425720125,59.95029015464455,98.43303220387791,119.0,9.0,72.0
232,11168.0,-66.82897815783659,20.09094553575688,86.04702200850073,138.0,9.0,74.0
233,11200.0,8.948959702766032,-64.8316926698246,80.69896193965117,147.0,9.0,76.0
234,11231.0,72.25051442783386,45.94120694984495,105.57371101267157,109.0,9.0,78.0
235,11261.0,-71.34162310870249,46.255113791032656,104.83978868129584,110.0,9.0,80.0
236,11292.0,-20.82640657560748,-141.61355536323518,176.4953973774417,32.0,9.0,82.0
237,11323.0,53.312544289352545,15.51428046667524,68.46415986872972,170.0,9.0,84.0
238,11355.0,-26.128061207334248,30.251625332383988,49.28880556023766,217.0,9.0,86.0
239,11385.0,-16.975428213984646,-37.09198734349074,50.29864398724194,214.0,9.0,88.0
240,11416.0,27.837920671256875,0.0,34.32566257894828,277.0,9.0,90.0
241,11447.0,-16.860796356344284,36.841512164946835,49.95898675301095,215.0,9.0,92.0
242,11479.0,-29.35777279811977,-33.99105414804657,55.38143621318441,200.0,9.0,94.0
